##TITLE= 
##JCAMP-DX= 4.24
##DATA TYPE= INFRARED SPECTRUM
##ORIGIN= JASCO
##OWNER= 
##DATE= 21/07/22
##TIME= 12:28:27
##SPECTROMETER/DATA SYSTEM= 
##RESOLUTION= 
##DELTAX=   0.96423347
##XUNITS= 1/CM
##YUNITS= TRANSMITTANCE
##XFACTOR= 1.00000
##YFACTOR= 1E-005
##FIRSTX=   649.8934
##LASTX=  4000.6047
##NPOINTS=     3476
##FIRSTY=      0.82209
##MAXY=      0.98872
##MINY=      0.49055
##XYDATA= (X++(Y..Y))
649.8934 82209 82557 83249 84113 84955 85624 86054 86253 86267 86140 85905
660.4999 85603 85293 85034 84857 84759 84722 84728 84744 84693 84459 83971
671.1065 83236 82278 81100 79681 77977 75930 73519 70846 68229 66194 65331
681.7131 66043 68318 71706 75501 79018 81782 83603 84529 84743 84461 83874
692.3196 83132 82346 81597 80942 80430 80113 80049 80292 80867 81746 82845
702.9262 84037 85191 86207 87035 87682 88181 88571 88883 89140 89363 89568
713.5328 89736 89813 89720 89410 88930 88446 88166 88218 88564 89033 89429
724.1393 89615 89571 89375 89140 88942 88791 88654 88504 88337 88165 87993
734.7459 87803 87560 87229 86800 86288 85727 85152 84578 83987 83339 82597
745.3525 81764 80889 80033 79207 78317 77178 75608 73568 71252 69054 67421
755.9590 66659 66808 67657 68866 70144 71342 72462 73571 74719 75904 77093
766.5656 78269 79447 80664 81940 83254 84542 85719 86707 87458 87960 88239
777.1722 88341 88317 88212 88053 87853 87620 87358 87071 86763 86443 86130
787.7787 85859 85667 85576 85574 85618 85648 85620 85518 85350 85131 84863
798.3853 84531 84111 83578 82908 82086 81114 80041 78977 78092 77565 77514
808.9919 77943 78733 79695 80644 81464 82125 82657 83100 83474 83777 84007
819.5984 84180 84339 84532 84783 85072 85342 85529 85601 85576 85522 85516
830.2050 85606 85787 86001 86178 86270 86289 86301 86399 86655 87084 87637
840.8116 88216 88721 89089 89308 89400 89392 89291 89085 88766 88348 87869
851.4182 87372 86882 86401 85922 85441 84962 84473 83941 83324 82625 81929
862.0247 81394 81185 81371 81867 82462 82922 83104 83028 82848 82760 82911
872.6313 83341 83995 84767 85550 86269 86883 87385 87786 88106 88360 88560
883.2379 88715 88838 88936 89002 88992 88831 88452 87843 87096 86405 85999
893.8444 86047 86583 87481 88518 89464 90177 90627 90872 91002 91084 91148
904.4510 91201 91244 91282 91320 91352 91365 91341 91273 91171 91057 90957
915.0576 90888 90855 90849 90853 90852 90834 90794 90736 90667 90597 90539
925.6641 90504 90502 90535 90590 90648 90679 90666 90605 90517 90434 90384
936.2707 90378 90404 90432 90436 90401 90329 90238 90143 90056 89981 89916
946.8773 89862 89816 89776 89732 89671 89585 89475 89353 89234 89132 89049
957.4838 88982 88920 88855 88779 88686 88567 88412 88217 87993 87762 87561
968.0904 87422 87359 87361 87389 87396 87347 87229 87056 86855 86653 86462
978.6970 86276 86084 85875 85649 85412 85176 84951 84737 84524 84299 84047
989.3035 83758 83426 83052 82632 82162 81635 81048 80410 79739 79058 78388
999.9101 77738 77104 76473 75829 75166 74496 73846 73248 72724 72267 71841
1010.5167 71401 70920 70419 69972 69680 69632 69868 70370 71075 71901 72780
1021.1232 73664 74523 75337 76088 76769 77383 77944 78463 78938 79345 79653
1031.7299 79828 79857 79757 79569 79353 79172 79074 79083 79191 79364 79552
1042.3364 79706 79794 79805 79743 79617 79431 79187 78882 78521 78116 77683
1052.9430 77230 76759 76262 75735 75180 74608 74030 73443 72828 72155 71399
1063.5496 70550 69620 68635 67619 66580 65506 64368 63142 61824 60429 58987
1074.1561 57522 56043 54557 53088 51706 50524 49657 49173 49055 49211 49519
1084.7627 49884 50265 50669 51115 51598 52075 52482 52763 52895 52895 52799
1095.3693 52637 52415 52120 51746 51315 50891 50570 50447 50581 50972 51562
1105.9758 52268 53013 53761 54523 55355 56330 57517 58957 60652 62558 64603
1116.5824 66700 68774 70778 72693 74512 76226 77810 79232 80465 81508 82389
1127.1890 83158 83872 84580 85310 86068 86840 87599 88314 88959 89522 90002
1137.7955 90410 90757 91054 91307 91519 91692 91826 91922 91976 91987 91950
1148.4021 91859 91710 91499 91231 90920 90590 90270 89985 89746 89540 89334
1159.0087 89087 88773 88389 87966 87551 87186 86892 86659 86467 86295 86147
1169.6152 86045 86026 86122 86348 86704 87171 87725 88332 88960 89574 90147
1180.2218 90657 91091 91448 91728 91938 92082 92168 92206 92206 92175 92118
1190.8284 92038 91934 91810 91666 91504 91325 91130 90919 90691 90448 90187
1201.4349 89903 89594 89261 88917 88580 88273 88014 87811 87662 87557 87484
1212.0415 87432 87387 87335 87260 87147 86984 86769 86508 86217 85913 85609
1222.6481 85307 84997 84664 84288 83857 83369 82830 82245 81616 80938 80203
1233.2546 79400 78513 77524 76418 75187 73843 72417 70952 69484 68029 66574
1243.8612 65087 63538 61915 60240 58568 56977 55559 54408 53609 53232 53317
1254.4678 53871 54862 56228 57880 59703 61566 63332 64881 66140 67099 67815
1265.0743 68390 68957 69641 70535 71676 73035 74522 76012 77385 78565 79529
1275.6809 80307 80955 81537 82106 82689 83296 83915 84525 85100 85616 86052
1286.2875 86390 86616 86720 86706 86586 86386 86132 85853 85572 85312 85090
1296.8940 84929 84845 84856 84969 85181 85477 85831 86211 86586 86929 87217
1307.5006 87433 87564 87605 87557 87429 87236 86994 86718 86419 86109 85800
1318.1072 85510 85254 85032 84826 84603 84329 83971 83506 82915 82191 81329
1328.7137 80331 79195 77923 76517 74985 73341 71591 69735 67786 65804 63941
1339.3203 62413 61374 60807 60545 60375 60125 59702 59120 58520 58146 58280
1349.9269 59145 60827 63260 66243 69465 72553 75165 77098 78336 78988 79197
1360.5334 79073 78680 78059 77223 76135 74694 72782 70346 67486 64463 61613
1371.1400 59230 57505 56551 56400 56972 58066 59458 61001 62623 64268 65837
1381.7466 67212 68310 69139 69786 70381 71034 71764 72499 73152 73701 74190
1392.3531 74696 75289 76009 76837 77700 78520 79239 79829 80282 80600 80810
1402.9597 80949 81069 81209 81379 81554 81695 81781 81824 81859 81926 82047
1413.5663 82222 82447 82745 83175 83810 84650 85562 86374 87020 87533 87965
1424.1729 88344 88664 88904 89046 89066 88948 88690 88319 87879 87400 86896
1434.7794 86385 85924 85612 85505 85555 85662 85759 85821 85852 85870 85893
1445.3860 85930 85983 86044 86106 86166 86223 86279 86327 86359 86365 86327
1455.9926 86230 86076 85897 85715 85506 85226 84828 84275 83578 82851 82275
1466.5991 81956 81846 81824 81778 81636 81396 81202 81322 81908 82837 83905
1477.2057 84992 86057 87092 88086 89002 89783 90376 90756 90939 90966 90892
1487.8123 90785 90725 90753 90835 90901 90906 90831 90673 90440 90165 89911
1498.4188 89734 89633 89570 89506 89410 89247 88944 88370 87376 86101 85095
1509.0254 84578 84298 84027 83652 83101 82302 81210 79852 78339 76762 75069
1519.6320 73049 70529 67613 64697 62156 60130 58598 57529 56915 56740 56973
1530.2385 57605 58653 60077 61661 63047 63997 64541 64865 65216 65950 67623
1540.8451 70595 74231 77604 80493 82984 85097 86808 88138 89170 90009 90729
1551.4517 91340 91822 92162 92381 92512 92594 92688 92902 93278 93678 93983
1562.0582 94192 94330 94418 94470 94494 94502 94511 94543 94601 94664 94703
1572.6648 94697 94645 94563 94499 94507 94596 94716 94820 94891 94931 94951
1583.2714 94960 94963 94958 94942 94910 94864 94806 94741 94673 94601 94527
1593.8779 94452 94381 94315 94250 94175 94077 93952 93808 93665 93544 93460
1604.4845 93411 93386 93373 93364 93356 93346 93327 93290 93225 93121 92973
1615.0911 92788 92599 92457 92377 92330 92275 92188 92070 91939 91822 91737
1625.6976 91674 91609 91526 91427 91324 91223 91120 90999 90842 90647 90460
1636.3042 90366 90386 90451 90496 90494 90446 90355 90217 90007 89694 89292
1646.9108 88910 88674 88589 88572 88519 88323 87913 87399 87016 86796 86629
1657.5173 86432 86163 85776 85218 84454 83542 82634 81849 81179 80512 79680
1668.1239 78531 77055 75490 74132 73024 71950 70681 69168 67624 66368 65571
1678.7305 65185 65095 65284 65931 67407 69881 72708 74893 76159 76809 77171
1689.3370 77421 77605 77694 77623 77324 76756 75920 74863 73619 72144 70371
1699.9436 68385 66434 64712 63208 61762 60209 58521 56869 55520 54658 54316
1710.5502 54431 54929 55756 56906 58474 60688 63726 67275 70588 73267 75453
1721.1567 77438 79411 81404 83322 85029 86435 87543 88418 89126 89710 90203
1731.7633 90658 91151 91714 92275 92732 93058 93286 93461 93616 93760 93886
1742.3699 93990 94073 94140 94191 94223 94240 94273 94372 94571 94841 95118
1752.9764 95351 95525 95646 95729 95789 95837 95880 95926 95987 96068 96167
1763.5830 96268 96351 96407 96433 96432 96415 96389 96368 96364 96389 96443
1774.1896 96513 96582 96640 96682 96711 96733 96757 96793 96843 96904 96964
1784.7961 97012 97034 97024 96978 96895 96780 96652 96557 96548 96639 96785
1795.4027 96919 96987 96965 96860 96721 96626 96642 96772 96960 97138 97261
1806.0093 97316 97317 97288 97252 97228 97225 97244 97280 97325 97367 97399
1816.6158 97416 97420 97418 97415 97410 97400 97383 97360 97334 97307 97275
1827.2224 97232 97180 97135 97118 97139 97188 97248 97305 97355 97399 97439
1837.8290 97467 97473 97446 97379 97273 97144 97028 96966 96974 97036 97120
1848.4355 97208 97289 97362 97424 97468 97486 97472 97426 97359 97287 97225
1859.0421 97185 97167 97166 97168 97158 97125 97059 96964 96857 96774 96756
1869.6487 96811 96912 97016 97096 97144 97166 97176 97187 97208 97237 97269
1880.2552 97297 97315 97319 97309 97281 97236 97179 97121 97081 97072 97097
1890.8618 97139 97178 97201 97207 97212 97227 97257 97293 97318 97321 97301
1901.4684 97265 97225 97190 97162 97137 97112 97086 97063 97050 97056 97081
1912.0750 97119 97154 97171 97159 97118 97059 97005 96972 96964 96975 97002
1922.6815 97043 97100 97169 97237 97285 97303 97288 97252 97212 97181 97165
1933.2881 97158 97150 97136 97116 97090 97060 97025 96987 96953 96937 96951
1943.8947 96993 97050 97099 97125 97124 97105 97088 97091 97119 97165 97205
1954.5012 97220 97198 97149 97096 97068 97085 97146 97227 97289 97295 97222
1965.1078 97074 96893 96744 96690 96752 96899 97069 97196 97240 97199 97101
1975.7144 96982 96873 96791 96743 96735 96769 96839 96921 96989 97017 96998
1986.3209 96942 96870 96802 96747 96706 96674 96651 96645 96668 96728 96824
1996.9275 96942 97054 97135 97171 97170 97153 97141 97138 97130 97101 97050
2007.5341 97002 96991 97033 97115 97195 97234 97217 97160 97100 97069 97085
2018.1406 97141 97219 97302 97373 97420 97431 97401 97340 97262 97188 97124
2028.7472 97070 97022 96978 96948 96939 96951 96972 96987 96995 97005 97032
2039.3538 97081 97142 97188 97199 97171 97121 97074 97049 97052 97075 97108
2049.9604 97142 97174 97202 97221 97225 97213 97190 97168 97156 97161 97180
2060.5669 97208 97240 97275 97308 97333 97341 97325 97285 97231 97180 97144
2071.1736 97127 97122 97121 97120 97121 97128 97142 97157 97164 97157 97141
2081.7800 97124 97114 97115 97121 97129 97137 97148 97163 97181 97194 97196
2092.3867 97189 97182 97183 97197 97212 97209 97173 97103 97014 96935 96892
2102.9932 96900 96953 97034 97121 97193 97236 97248 97230 97192 97144 97100
2113.5999 97073 97073 97099 97143 97188 97222 97240 97250 97266 97302 97359
2124.2063 97423 97471 97483 97453 97394 97333 97294 97291 97317 97356 97383
2134.8130 97389 97376 97362 97363 97387 97426 97462 97477 97461 97420 97364
2145.4194 97302 97241 97183 97127 97075 97031 97006 97027 97141 97393 97798
2156.0261 98289 98713 98872 98638 98057 97349 96767 96460 96426 96561 96737
2166.6326 96865 96915 96901 96849 96782 96715 96665 96649 96677 96740 96816
2177.2393 96874 96896 96874 96818 96743 96668 96606 96561 96530 96504 96476
2187.8457 96444 96419 96415 96448 96523 96630 96750 96852 96906 96889 96802
2198.4524 96666 96524 96420 96383 96417 96502 96609 96712 96794 96847 96866
2209.0588 96846 96792 96717 96647 96605 96606 96648 96712 96774 96816 96826
2219.6655 96805 96762 96712 96673 96660 96683 96740 96815 96886 96936 96958
2230.2720 96960 96954 96948 96943 96933 96916 96894 96875 96867 96870 96879
2240.8787 96889 96896 96906 96924 96952 96985 97011 97023 97022 97015 97012
2251.4851 97015 97022 97023 97013 96994 96976 96968 96973 96988 97006 97018
2262.0918 97022 97018 97011 97008 97013 97027 97045 97061 97067 97064 97054
2272.6982 97044 97042 97046 97053 97061 97066 97071 97078 97086 97089 97082
2283.3049 97063 97038 97017 97006 97009 97022 97038 97049 97054 97049 97035
2293.9114 97010 96976 96939 96907 96886 96882 96889 96902 96913 96917 96912
2304.5181 96897 96871 96833 96786 96739 96700 96677 96671 96677 96686 96694
2315.1245 96700 96705 96707 96698 96667 96609 96529 96447 96390 96376 96407
2325.7312 96468 96538 96595 96627 96636 96633 96635 96649 96670 96685 96683
2336.3376 96660 96623 96584 96552 96529 96509 96489 96472 96467 96479 96504
2346.9443 96530 96549 96555 96550 96536 96520 96508 96506 96515 96527 96533
2357.5508 96525 96500 96461 96418 96384 96371 96384 96422 96475 96531 96581
2368.1575 96620 96647 96661 96661 96647 96623 96597 96578 96572 96582 96605
2378.7639 96640 96683 96734 96791 96850 96904 96945 96970 96980 96982 96982
2389.3706 96985 96993 97001 97006 97008 97007 97004 97001 96994 96984 96971
2399.9771 96960 96957 96962 96975 96990 97000 96999 96985 96960 96931 96908
2410.5837 96898 96904 96920 96938 96950 96953 96951 96952 96959 96972 96984
2421.1902 96986 96977 96959 96938 96921 96910 96905 96905 96908 96912 96915
2431.7969 96915 96913 96907 96897 96883 96863 96839 96813 96791 96776 96768
2442.4033 96763 96758 96747 96732 96715 96698 96681 96666 96651 96637 96627
2453.0100 96621 96615 96610 96604 96600 96600 96605 96615 96624 96631 96636
2463.6165 96640 96645 96648 96645 96632 96609 96583 96561 96546 96540 96537
2474.2231 96536 96533 96530 96526 96520 96510 96493 96473 96456 96448 96449
2484.8296 96458 96470 96480 96487 96493 96500 96512 96529 96549 96569 96581
2495.4363 96583 96572 96551 96526 96506 96497 96503 96523 96552 96584 96609
2506.0427 96621 96616 96596 96570 96544 96526 96516 96513 96515 96524 96546
2516.6494 96586 96638 96689 96721 96719 96684 96625 96564 96516 96491 96487
2527.2559 96501 96523 96549 96574 96594 96606 96610 96604 96589 96566 96537
2537.8625 96510 96491 96489 96507 96538 96573 96600 96612 96613 96613 96622
2548.4690 96641 96662 96671 96662 96637 96610 96598 96607 96635 96665 96678
2559.0757 96666 96633 96593 96562 96550 96557 96574 96592 96608 96620 96632
2569.6821 96647 96667 96688 96707 96718 96720 96712 96700 96687 96678 96676
2580.2888 96676 96677 96673 96663 96650 96639 96633 96633 96634 96630 96616
2590.8953 96593 96565 96542 96531 96532 96545 96562 96576 96583 96580 96566
2601.5020 96545 96522 96503 96493 96493 96500 96509 96515 96516 96513 96507
2612.1084 96500 96490 96479 96466 96452 96438 96426 96415 96403 96391 96377
2622.7151 96361 96347 96337 96335 96341 96355 96371 96383 96387 96382 96371
2633.3215 96363 96363 96373 96390 96408 96420 96424 96419 96411 96405 96404
2643.9282 96409 96420 96435 96453 96472 96487 96493 96488 96471 96449 96432
2654.5347 96426 96436 96460 96491 96520 96542 96556 96563 96568 96573 96575
2665.1414 96570 96557 96537 96515 96498 96491 96494 96501 96508 96511 96512
2675.7478 96514 96521 96529 96535 96535 96526 96511 96492 96474 96459 96445
2686.3545 96434 96426 96422 96420 96418 96415 96411 96406 96404 96407 96414
2696.9609 96423 96431 96437 96440 96438 96434 96429 96426 96428 96438 96456
2707.5676 96477 96493 96498 96490 96473 96453 96437 96427 96422 96420 96416
2718.1741 96413 96412 96413 96417 96422 96423 96421 96413 96402 96388 96371
2728.7808 96352 96331 96310 96289 96269 96252 96239 96231 96230 96232 96234
2739.3872 96233 96225 96210 96191 96173 96163 96164 96178 96200 96222 96234
2749.9939 96232 96217 96198 96183 96177 96177 96177 96171 96159 96148 96144
2760.6003 96149 96161 96174 96186 96196 96203 96209 96212 96209 96203 96201
2771.2070 96209 96229 96253 96268 96265 96239 96200 96163 96141 96138 96145
2781.8135 96150 96141 96120 96094 96079 96081 96101 96128 96148 96152 96138
2792.4202 96113 96088 96070 96064 96065 96069 96071 96068 96061 96050 96038
2803.0266 96026 96014 96003 95996 95993 95992 95990 95984 95971 95950 95927
2813.6333 95905 95888 95875 95864 95850 95832 95810 95788 95767 95752 95742
2824.2397 95738 95738 95738 95736 95729 95718 95703 95688 95675 95668 95666
2834.8464 95666 95666 95660 95647 95626 95596 95558 95515 95470 95425 95383
2845.4529 95346 95311 95272 95222 95153 95067 94966 94855 94738 94619 94500
2856.0596 94384 94277 94180 94092 94009 93925 93838 93746 93649 93547 93440
2866.6660 93330 93223 93127 93054 93013 93008 93038 93094 93161 93220 93248
2877.2727 93232 93169 93075 92972 92885 92824 92786 92754 92714 92657 92585
2887.8792 92500 92405 92302 92190 92075 91964 91859 91759 91654 91535 91403
2898.4858 91269 91151 91068 91027 91028 91062 91119 91195 91289 91403 91533
2909.0923 91670 91803 91922 92022 92104 92172 92226 92261 92264 92224 92137
2919.6990 92007 91845 91661 91463 91251 91029 90805 90594 90413 90272 90170
2930.3054 90093 90027 89967 89920 89903 89930 90004 90119 90262 90424 90602
2940.9121 90799 91012 91230 91434 91604 91724 91793 91815 91801 91761 91701
2951.5186 91626 91539 91443 91341 91236 91130 91024 90922 90826 90736 90647
2962.1252 90549 90436 90301 90142 89960 89754 89520 89253 88947 88598 88207
2972.7317 87782 87337 86896 86486 86133 85855 85656 85530 85458 85420 85403
2983.3384 85403 85433 85515 85676 85933 86292 86737 87239 87764 88284 88783
2993.9448 89261 89723 90175 90620 91052 91465 91848 92196 92506 92779 93024
3004.5515 93247 93455 93655 93848 94036 94220 94400 94575 94741 94894 95032
3015.1580 95154 95264 95365 95459 95544 95619 95684 95743 95803 95868 95937
3025.7646 96003 96057 96093 96116 96131 96150 96177 96211 96243 96265 96272
3036.3711 96265 96253 96247 96253 96271 96294 96308 96299 96263 96207 96144
3046.9778 96096 96073 96079 96103 96131 96154 96168 96175 96177 96176 96170
3057.5842 96163 96160 96166 96186 96220 96263 96307 96346 96376 96394 96399
3068.1909 96389 96367 96336 96303 96274 96254 96244 96243 96247 96252 96254
3078.7974 96250 96240 96225 96209 96192 96179 96173 96175 96186 96208 96237
3089.4041 96271 96309 96349 96393 96438 96478 96508 96522 96524 96519 96518
3100.0105 96526 96546 96570 96590 96600 96599 96590 96580 96577 96582 96595
3110.6172 96612 96629 96642 96650 96655 96658 96658 96657 96654 96651 96649
3121.2236 96648 96650 96655 96665 96679 96696 96711 96719 96716 96702 96681
3131.8303 96661 96648 96650 96669 96704 96749 96792 96823 96831 96813 96775
3142.4368 96733 96701 96691 96704 96733 96767 96797 96819 96833 96839 96838
3153.0435 96828 96809 96783 96754 96729 96714 96711 96718 96728 96736 96736
3163.6499 96728 96715 96698 96681 96669 96665 96670 96685 96706 96724 96730
3174.2566 96719 96694 96663 96637 96625 96630 96649 96676 96703 96722 96729
3184.8630 96722 96705 96684 96670 96669 96679 96694 96702 96694 96670 96640
3195.4697 96618 96613 96626 96648 96666 96670 96661 96644 96628 96620 96620
3206.0762 96624 96630 96632 96629 96622 96611 96600 96594 96594 96600 96610
3216.6829 96621 96633 96647 96660 96672 96677 96671 96652 96624 96596 96576
3227.2893 96572 96586 96617 96657 96694 96722 96744 96773 96825 96903 96987
3237.8960 97042 97030 96939 96793 96640 96528 96482 96493 96531 96565 96578
3248.5024 96574 96563 96553 96548 96546 96545 96544 96544 96544 96542 96538
3259.1091 96531 96526 96523 96526 96532 96542 96555 96570 96588 96607 96624
3269.7156 96635 96639 96635 96624 96610 96601 96599 96604 96612 96615 96607
3280.3223 96587 96563 96540 96525 96519 96519 96523 96529 96538 96550 96564
3290.9287 96579 96592 96603 96610 96614 96613 96605 96590 96572 96556 96543
3301.5354 96537 96534 96535 96537 96543 96552 96560 96561 96545 96512 96467
3312.1418 96425 96398 96392 96400 96411 96411 96399 96382 96371 96373 96389
3322.7485 96410 96426 96431 96424 96409 96389 96364 96335 96303 96271 96247
3333.3550 96241 96256 96289 96330 96366 96387 96392 96387 96378 96366 96347
3343.9617 96319 96285 96259 96255 96283 96335 96386 96410 96389 96324 96235
3354.5681 96152 96100 96091 96118 96163 96204 96229 96234 96226 96220 96230
3365.1748 96262 96309 96358 96392 96399 96376 96335 96289 96253 96235 96235
3375.7813 96247 96259 96261 96244 96208 96157 96101 96054 96027 96028 96054
3386.3879 96097 96142 96178 96197 96196 96175 96137 96091 96044 96009 95991
3396.9944 95993 96010 96032 96048 96049 96034 96006 95972 95939 95915 95904
3407.6011 95909 95926 95946 95962 95966 95957 95937 95915 95897 95886 95881
3418.2075 95878 95870 95854 95831 95809 95800 95813 95856 95927 96019 96115
3428.8142 96198 96254 96279 96277 96259 96237 96221 96213 96210 96207 96198
3439.4207 96179 96151 96119 96087 96061 96043 96037 96042 96059 96085 96114
3450.0273 96141 96164 96186 96211 96243 96279 96311 96328 96323 96300 96269
3460.6338 96245 96240 96253 96276 96300 96315 96322 96323 96324 96326 96327
3471.2405 96326 96325 96329 96340 96357 96373 96379 96368 96339 96303 96274
3481.8469 96264 96276 96301 96323 96327 96305 96263 96216 96181 96172 96189
3492.4536 96227 96274 96321 96356 96372 96361 96319 96250 96169 96102 96079
3503.0601 96115 96194 96280 96340 96356 96335 96300 96274 96274 96295 96327
3513.6667 96360 96389 96416 96438 96447 96431 96385 96312 96227 96151 96098
3524.2732 96074 96072 96089 96124 96177 96245 96310 96354 96365 96348 96323
3534.8799 96313 96334 96383 96436 96467 96458 96403 96312 96200 96092 96019
3545.4863 96009 96061 96150 96238 96294 96308 96289 96264 96257 96278 96315
3556.0930 96350 96366 96359 96336 96305 96266 96209 96117 95980 95813 95672
3566.6995 95634 95733 95917 96107 96255 96348 96395 96413 96416 96415 96412
3577.3062 96403 96389 96372 96357 96343 96319 96266 96169 96029 95881 95799
3587.9126 95836 95972 96134 96258 96309 96287 96216 96146 96127 96174 96262
3598.5193 96348 96394 96384 96328 96248 96160 96069 95975 95887 95821 95796
3609.1257 95815 95862 95913 95957 95994 96025 96048 96050 96019 95958 95901
3619.7324 95898 95969 96086 96206 96285 96295 96211 96020 95757 95538 95488
3630.3391 95611 95815 96018 96184 96298 96356 96361 96326 96272 96221 96192
3640.9456 96190 96204 96211 96181 96080 95876 95551 95159 94891 94923 95173
3651.5522 95453 95666 95793 95848 95859 95859 95881 95931 95997 96061 96114
3662.1587 96154 96182 96196 96190 96151 96068 95937 95784 95659 95592 95563
3672.7654 95532 95469 95380 95316 95333 95435 95582 95738 95883 96004 96095
3683.3718 96149 96161 96127 96044 95918 95779 95689 95697 95786 95903 96014
3693.9785 96107 96184 96249 96303 96348 96378 96392 96392 96388 96390 96402
3704.5850 96417 96421 96400 96336 96220 96061 95914 95857 95919 96054 96202
3715.1917 96325 96406 96438 96415 96340 96225 96097 95986 95920 95918 95978
3725.7981 96080 96188 96271 96306 96278 96179 96008 95779 95549 95410 95426
3736.4048 95562 95731 95871 95958 95988 95960 95879 95772 95695 95693 95751
3747.0112 95809 95818 95759 95666 95626 95702 95858 96023 96151 96230 96266
3757.6179 96277 96290 96325 96377 96426 96451 96442 96398 96332 96262 96212
3768.2244 96197 96230 96308 96418 96532 96623 96670 96663 96604 96511 96421
3778.8311 96373 96379 96418 96456 96473 96473 96472 96488 96523 96567 96607
3789.4375 96636 96652 96655 96641 96606 96547 96471 96390 96317 96254 96202
3800.0442 96166 96159 96188 96239 96287 96315 96322 96332 96368 96435 96514
3810.6506 96576 96598 96565 96477 96353 96229 96136 96077 96033 95996 95978
3821.2573 96003 96072 96159 96238 96296 96334 96362 96385 96406 96419 96421
3831.8638 96407 96378 96332 96261 96155 96015 95865 95754 95722 95771 95878
3842.4705 96017 96166 96308 96422 96494 96509 96461 96339 96135 95851 95551
3853.0769 95392 95481 95724 95978 96181 96320 96393 96395 96326 96203 96071
3863.6836 95987 95978 96020 96070 96087 96054 95982 95907 95878 95919 96019
3874.2900 96142 96255 96333 96362 96340 96276 96190 96109 96056 96043 96074
3884.8967 96149 96249 96342 96396 96389 96323 96231 96168 96175 96245 96332
3895.5032 96387 96382 96306 96169 96000 95839 95718 95659 95679 95781 95945
3906.1099 96133 96308 96446 96537 96583 96594 96579 96547 96501 96444 96386
3916.7163 96343 96329 96344 96372 96392 96394 96383 96376 96389 96423 96460
3927.3230 96476 96458 96409 96351 96315 96322 96369 96434 96495 96538 96558
3937.9294 96556 96532 96490 96438 96393 96368 96368 96381 96392 96390 96377
3948.5361 96365 96371 96397 96436 96472 96494 96498 96488 96470 96448 96427
3959.1426 96413 96412 96430 96465 96512 96559 96596 96616 96619 96606 96582
3969.7493 96549 96510 96470 96433 96408 96400 96412 96441 96478 96511 96530
3980.3557 96532 96519 96500 96482 96471 96468 96468 96472 96479 96489 96502
3990.9624 96510 96508 96493 96470 96447 96434 96432 96443 96463 96493 96531
##END= 
